##TITLE=C2H6O
##JCAMP-DX=5.01
##DATA TYPE=INFRARED SPECTRUM
##DATE=28/07/2021
##TIME=16/56/00
##ORIGIN=VSPEC
##OWNER=VSPEC
##XUNITS=ARBITRARY UNITS
##YUNITS=ABSORBANCE
##RESOLUTION=4
##FIRSTX=555.458190917969
##LASTX=3957.6396484375
##MAXY=0.0853606909513474
##MINY=-0.00276734656654298
##XFACTOR=1e-3
##YFACTOR=1e-7
##NPOINTS=1765
##FIRSTY=0.000265113136265427
##XYDATA=(X++(Y..Y))
555458 2651 -2408 -4009 -2209 -4000 -5278 -2252 -1807 -3879 -6233
574744 -7764 -7791 -6071 -1787 964 819 -639 -1680 -4095 -8073
594031 -9314 -6520 -3007 -3300 -4987 -5910 -6375 -4614 -1954 -1349
613318 -1961 -3110 -6697 -7717 -4498 -3121 -4233 -5824 -6624 -4526
632605 -1279 -2372 -5752 -7808 -8401 -6796 -5767 -6295 -6912 -7052
651891 -7148 -7483 -7090 -7099 -7178 -7055 -7067 -9119 -15985 -15042
671178 -8086 -7487 -9436 -9298 -8749 -8118 -8046 -9573 -10573 -9522
690465 -8951 -9910 -9268 -7136 -6561 -6844 -6024 -5447 -6117 -6434
709752 -5910 -5724 -5801 -6072 -6211 -6125 -6654 -6254 -4979 -5162
729038 -6597 -7037 -6272 -6625 -7565 -7593 -6758 -5369 -5160 -5605
748325 -5740 -6543 -6808 -5929 -5196 -5647 -6095 -5443 -5297 -5398
767612 -5584 -6298 -6198 -6272 -6583 -6304 -6535 -6517 -6204 -6129
786899 -6002 -5914 -5846 -5479 -5422 -6178 -6250 -5603 -5335 -6096
806185 -6651 -6246 -6708 -7006 -6686 -6708 -6207 -5902 -6263 -7013
825472 -7130 -6119 -5532 -5025 -4971 -6073 -5947 -4689 -4974 -5614
844759 -5047 -4702 -5113 -4566 -3354 -2795 -1806 -1083 -740 382
864046 1370 2357 3901 5742 8324 11443 14568 17619 20385 23526
883332 27016 30582 35429 40665 45243 51332 58951 66569 73390 79655
902619 87669 97056 105449 113934 123214 131317 138531 144493 147613 148245
921906 145706 137824 124863 111084 103183 106238 120650 144403 165964 174415
941193 173421 166733 158121 150773 142736 133520 123683 113210 102894 92964
960479 83309 75342 68666 62077 56264 51343 46672 42324 38050 32903
979766 27694 23785 20478 17164 14731 12914 10433 7603 5423 3976
999053 2685 1508 895 24 -1468 -1678 -1364 -2356 -3427 -3472
1018340 -3012 -2704 -2706 -3015 -3133 -3015 -3542 -3901 -3208 -2654
1037626 -2883 -3173 -3001 -2342 -1497 -1453 -1649 -913 775 2893
1056913 4959 7398 11206 16631 23354 32060 43143 56979 75006 96989
1076200 121065 148162 177998 206657 232581 255083 271582 279788 279530 273566
1095486 266446 269428 306614 366322 331386 194047 129309 177928 260752 333755
1114773 377738 391039 378460 346337 302306 253508 205892 163772 129146 102968
1134060 85415 75370 72417 75341 83494 98163 119822 153633 199482 239790
1153347 270700 309970 363879 425224 487838 548916 603404 646148 670687 665589
1172633 632606 644195 792526 853606 630519 446758 472909 587196 707224 789282
1191920 809623 769044 682666 571557 455835 349730 261046 192292 141854 105986
1211207 82036 66683 56159 49503 45516 42501 40110 38604 37134 35796
1230494 35252 34276 32640 30680 28275 25095 20672 16053 13432 13368
1249780 15450 19053 21065 20185 18435 15979 13447 12012 10239 8428
1269067 7462 6470 5775 5423 5026 4585 4054 3512 2696 1753
1288354 1154 867 542 53 22 483 407 -389 -1252 -1487
1307641 -1046 -839 -1519 -2449 -2876 -3238 -3348 -2412 -1680 -2208
1326927 -2560 -2265 -2214 -2187 -2680 -4867 -7267 -6346 -3695 -2613
1346214 -2296 -2500 -2728 -2603 -2834 -3235 -3653 -4913 -7626 -7202
1365501 -3665 -2693 -2856 -3281 -5875 -6036 -3233 -1917 -1283 -228
1384788 -601 -2323 -666 2351 1376 -1227 -575 1526 6112 10226
1404074 10785 13103 16673 18009 19123 20748 19724 15101 15362 21026
1423361 23464 27556 32693 34860 38117 42756 44163 48155 58991 66700
1442648 72209 77828 83693 91540 114448 152233 161322 128786 109960 133485
1461935 152269 147065 136635 135303 127617 115230 108825 105701 100025 92889
1481221 84924 79564 73868 63730 53558 51044 52102 46645 37845 34610
1500508 34072 31695 23055 5476 2623 10175 12849 10621 3912 188
1519795 -2320 -5493 -2584 -2616 -2594 469 -2220 -7703 -5057 -5953
1539082 -17024 -21104 -16780 -12219 -6676 -6620 -7785 -7428 -9741 -15173
1558368 -26383 -19378 -7525 -5391 -5215 -7694 -9511 -4771 -4666 -9560
1577655 -6703 -1843 -992 -1169 -1368 -1638 -1445 -778 -997 -2329
1596942 -2722 -2195 -1954 -1938 -1721 -2160 -2899 -2383 -1675 -4060
1616229 -8765 -6820 -4057 -7157 -8652 -6947 -6806 -4885 -3826 -8813
1635515 -15788 -11974 -6141 -3881 -4712 -10773 -16342 -11623 -12254 -23571
1654802 -17176 -7548 -5088 -6632 -8931 -7134 -6999 -12414 -14263 -10519
1674089 -11644 -11971 -9077 -10134 -15072 -21740 -16828 -11131 -10043 -7893
1693376 -9530 -15613 -17297 -20769 -20304 -13633 -13625 -12192 -8422 -7368
1712662 -9305 -14705 -20856 -18293 -10040 -7389 -7087 -6148 -8426 -11786
1731949 -15053 -18726 -13290 -10084 -11775 -11628 -11140 -11646 -13829 -16342
1751236 -14766 -9680 -8495 -9815 -9262 -11095 -10599 -7146 -8218 -10918
1770522 -13684 -15447 -12053 -8571 -7950 -9133 -8960 -8665 -8200 -7249
1789809 -9843 -13530 -11845 -9031 -8714 -10376 -11150 -8783 -6903 -7230
1809096 -8512 -8980 -7267 -6131 -6660 -6740 -5763 -6394 -8660 -8577
1828383 -9909 -10875 -7036 -5208 -5899 -5857 -5372 -7469 -10984 -9690
1847669 -6938 -5562 -4501 -4112 -4088 -4157 -4121 -4071 -4174 -5052
1866956 -8450 -10844 -7859 -4778 -4052 -4328 -4868 -4777 -4675 -4939
1886243 -5063 -6758 -7715 -6198 -6094 -6239 -5506 -5455 -5351 -5056
1905530 -5356 -6395 -7104 -6624 -6249 -7220 -8817 -8116 -7297 -7940
1924816 -6965 -5821 -5629 -5800 -6365 -6648 -6734 -6717 -7301 -8462
1944103 -8009 -6740 -5992 -5832 -6320 -6436 -5684 -5257 -5682 -6003
1963390 -6011 -6749 -7689 -7163 -6088 -5718 -5800 -5794 -5826 -5558
1982677 -5054 -5014 -5365 -5485 -5446 -5142 -3796 -2362 -1490 -699
2001963 370 1325 2011 2885 3701 3920 3402 2553 2620 3907
2021250 4906 5142 5219 4751 3205 1746 2062 4375 7360 9032
2040537 8700 7805 6800 4811 2268 326 -1060 -2314 -3025 -3160
2059824 -2919 -2137 -1208 -376 510 1300 2614 4602 6213 7686
2079110 9765 11569 12864 14300 15492 16404 17042 17272 17936 19566
2098397 21814 23023 21144 16678 14484 17234 21569 24617 25465 24101
2117684 20700 15392 9996 5730 2004 -903 -2354 -2501 -2653 -3484
2136971 -3903 -3668 -3563 -3750 -3730 -3531 -3371 -3295 -3269 -3418
2156257 -3646 -3596 -3857 -4160 -3749 -3451 -3811 -4306 -4451 -4278
2175544 -4163 -3834 -3454 -3951 -4547 -4317 -4198 -4593 -4661 -4427
2194831 -4443 -4509 -4463 -4621 -4760 -4429 -4070 -4138 -4285 -4267
2214118 -4196 -4210 -4224 -4151 -4411 -4840 -4956 -4876 -4737 -4660
2233404 -4543 -4559 -4805 -4935 -4738 -4328 -4489 -4837 -4611 -4187
2252691 -4239 -4811 -4827 -4435 -4674 -5110 -4975 -4982 -5326 -5016
2271978 -4683 -4831 -5159 -5180 -4380 -3846 -4285 -4932 -4997 -4856
2291265 -4983 -5224 -5885 -6819 -7586 -8177 -8703 -9009 -9560 -10898
2310551 -12312 -13355 -13898 -14474 -15757 -17550 -18800 -18923 -19423 -20478
2329838 -21461 -21558 -20634 -20749 -21531 -21848 -21833 -22141 -21568 -17938
2349125 -16154 -19055 -22752 -24985 -26409 -27244 -27673 -27232 -26657 -25314
2368412 -23182 -21307 -19184 -17177 -15506 -13252 -10209 -7500 -5899 -4941
2387698 -4215 -3750 -3472 -3324 -3090 -2443 -1833 -1665 -1483 -981
2406985 -441 -85 79 -268 -904 -1205 -965 119 1084 123
2426272 -1481 -1394 -344 547 723 275 -177 -1097 -2237 -2972
2445559 -3571 -4500 -5040 -4611 -4431 -4691 -4693 -4637 -5103 -5655
2464845 -5559 -5472 -5707 -5811 -5584 -5189 -5243 -5599 -5786 -5801
2484132 -5726 -5650 -5337 -5074 -5302 -5665 -5466 -4993 -4825 -4646
2503419 -4652 -5062 -5234 -5117 -5142 -5017 -4403 -3602 -3467 -3799
2522705 -3804 -3620 -3437 -3376 -3288 -3014 -2750 -2703 -2846 -2767
2541992 -2350 -1997 -1794 -1401 -395 321 -232 -793 -230 532
2561279 199 -284 84 375 537 1068 1468 995 294 200
2580566 588 1434 2098 2180 2263 2734 3201 3383 3484 4069
2599852 4923 4913 3889 3029 3646 4802 4820 4049 3571 3607
2619139 3863 3898 3299 2814 3043 3238 3337 3319 2480 2013
2638426 2422 2660 3119 3530 3469 3075 2326 1770 1530 1097
2657713 352 218 1059 1864 1802 1680 1920 1627 1253 1440
2676999 1625 1932 2960 4009 4687 5268 5906 6777 7336 7495
2696286 7552 6879 5974 5243 4428 4768 5753 5918 5420 4460
2715573 3495 3294 3237 2501 1888 1810 1587 1279 1265 1398
2734860 1649 1449 656 330 807 1784 2480 2854 3633 4491
2754146 5348 6474 7786 9128 10518 11971 13769 16357 19596 22940
2773433 25942 29965 35729 42331 50199 60197 72756 88339 108093 132756
2792720 161766 194905 230859 266973 301202 330861 351816 361809 357995 341576
2812007 321836 328837 395085 429927 356756 289214 300606 354550 413603 458756
2831293 483515 489789 482035 462673 436848 409040 382428 359614 343438 334405
2850580 330584 330722 331837 334371 340704 350066 361548 375441 392262 405752
2869867 417331 441258 494025 546632 534081 495559 495633 520837 572884 624707
2889154 646080 657874 638196 597049 563556 532122 514568 507695 505471 506743
2908440 501191 491123 484894 492027 508103 508103 495014 500075 529432 549823
2927727 540737 514914 496510 505865 510732 481327 447861 429739 418625 401800
2947014 375274 346193 320418 299500 282199 267141 253880 243768 239415 241602
2966301 248303 258591 273344 292398 312811 331796 346750 354369 353084 341491
2985587 319450 295287 279385 280909 295278 324428 340617 286486 237359 257040
3004874 289276 307380 311730 302321 282770 255566 224294 192228 162119 134723
3024161 110630 90130 73984 62382 53552 45974 39988 35670 32239 29255
3043448 26220 23300 21131 19557 18046 16771 15703 14579 13740 13000
3062734 12588 12327 11684 11208 10916 10399 10014 9511 8699 8244
3082021 8101 7920 7733 7856 8111 8181 8000 7423 7417 7807
3101308 7247 6292 5992 6043 6168 6020 5257 5081 5647 5723
3120595 5327 5182 5166 5164 5718 5905 5132 4814 4699 4305
3139881 4288 4307 4453 4998 5227 4281 3332 3174 2561 1755
3159168 1249 1246 2020 2139 1039 564 841 301 -553 -753
3178455 -114 206 -467 -787 -854 -703 263 800 -265 -1691
3197741 -2177 -2376 -2738 -2724 -2239 -2162 -3031 -3497 -2776 -1975
3217028 -1910 -2799 -3202 -2830 -3465 -4301 -4165 -3524 -2788 -2385
3236315 -2484 -2924 -3430 -3476 -2967 -2876 -3506 -4201 -4659 -4817
3255602 -4977 -4933 -4655 -4474 -4001 -3804 -4643 -5455 -5523 -4952
3274888 -4302 -4687 -5350 -5428 -5230 -4788 -4751 -5683 -5977 -5677
3294175 -6109 -6359 -6063 -5364 -5073 -5626 -5796 -5499 -5498 -5638
3313462 -5517 -5347 -5334 -5237 -5714 -6381 -6212 -5826 -5373 -5089
3332749 -5515 -6187 -6240 -5875 -5584 -4809 -4253 -4890 -5406 -5548
3352035 -5998 -5776 -5181 -5468 -6091 -5931 -5589 -6160 -6642 -6153
3371322 -5636 -5630 -5756 -5860 -5948 -5979 -5792 -5770 -6058 -5811
3390609 -5794 -6008 -5915 -6419 -6682 -6951 -7436 -6902 -5731 -5275
3409896 -6282 -7503 -7565 -6521 -6158 -6861 -6730 -6220 -6222 -6406
3429182 -6130 -5378 -5626 -6439 -7036 -7228 -7186 -7540 -7420 -7148
3448469 -6763 -6299 -6406 -5890 -5491 -6378 -6870 -6400 -6029 -5983
3467756 -5992 -5839 -5319 -5290 -5932 -5967 -6368 -7595 -7370 -6704
3487043 -7130 -7298 -6890 -6982 -7739 -7275 -6335 -7059 -8483 -8635
3506329 -7886 -7870 -7688 -7285 -6788 -6211 -6940 -7491 -7819 -8916
3525616 -9133 -8095 -7343 -7128 -6786 -7373 -7782 -6862 -6469 -8100
3544903 -10441 -10033 -7952 -7730 -8843 -8921 -8380 -8809 -9145 -8255
3564190 -10375 -15988 -15536 -9735 -7000 -7093 -7430 -7716 -8295 -8655
3583476 -9546 -13494 -17586 -13964 -9682 -10678 -12443 -11117 -9943 -10326
3602763 -9038 -8636 -12846 -15479 -13446 -13677 -13664 -12903 -15626 -14941
3622050 -9982 -8385 -11623 -19073 -19147 -12353 -9839 -9023 -8981 -8679
3641337 -8026 -8608 -12777 -20111 -23954 -19133 -12348 -11271 -11390 -8410
3660623 -7001 -7242 -7262 -8617 -14544 -17227 -13831 -17929 -20867 -14549
3679910 -10704 -8174 -6660 -8290 -14098 -18985 -15480 -9315 -7090 -7722
3699197 -9587 -12190 -10867 -8147 -8978 -13776 -18722 -16420 -10299 -7968
3718484 -9003 -10984 -13169 -14107 -12685 -9727 -9696 -14152 -21365 -23844
3737770 -17420 -12822 -13601 -19057 -19441 -16408 -19477 -21601 -16498 -12124
3757057 -12182 -13016 -9915 -7505 -9014 -10387 -11104 -10549 -7395 -4964
3776344 -5437 -9031 -10050 -8054 -8062 -8267 -6898 -5767 -5816 -6826
3795631 -9332 -10391 -11896 -15164 -11858 -10296 -11103 -7877 -5655 -6414
3814917 -10115 -11242 -11530 -15737 -12653 -8870 -9297 -8546 -9131 -10634
3834204 -11599 -14438 -17484 -16508 -13596 -11530 -8802 -7145 -9486 -16178
3853491 -20490 -14659 -10222 -8670 -9743 -12501 -12602 -10761 -13264 -14409
3872777 -12137 -10556 -7407 -8679 -12734 -11872 -12480 -12180 -8742 -9727
3892064 -10428 -6716 -5730 -9483 -13664 -15187 -15182 -11722 -5962 -2850
3911351 -3400 -4413 -6690 -9424 -9067 -7209 -7026 -7648 -6483 -5970
3930638 -6896 -7112 -5434 -4442 -4701 -5544 -6803 -6014 -6110 -7260
3949924 -6064 -4796 -4643 -4628 -4481
##END=
